Energy [keV]	dN/dE	unc
0	0.00251483	0.0000712446
2	0.00255361	0.0000723424
4	0.00257945	0.0000730736
6	0.00259231	0.000073437
8	0.00259822	0.0000736036
10	0.00260086	0.0000736775
12	0.00260176	0.0000737021
14	0.0026016	0.0000736967
16	0.00260073	0.0000736712
18	0.00259934	0.0000736309
20	0.00259756	0.0000735796
22	0.00259547	0.0000735195
24	0.00259311	0.0000734518
26	0.00259052	0.0000733775
28	0.00258774	0.0000732979
30	0.00258476	0.0000732126
32	0.00258163	0.000073123
34	0.00257834	0.000073029
36	0.00257489	0.0000729304
38	0.00257131	0.0000728281
40	0.00256761	0.0000727224
42	0.00256376	0.0000726124
44	0.00255979	0.0000724991
46	0.00255571	0.0000723826
48	0.0025515	0.0000722625
50	0.00254719	0.0000721395
52	0.00254275	0.0000720129
54	0.00253821	0.0000718834
56	0.00253356	0.0000717508
58	0.0025288	0.0000716151
60	0.00252392	0.000071476
62	0.00251895	0.0000713344
64	0.00251389	0.0000711902
66	0.0025087	0.0000710423
68	0.00250343	0.0000708922
70	0.00249805	0.0000707389
72	0.00249258	0.0000705831
74	0.002487	0.0000704243
76	0.00248134	0.0000702631
78	0.00247557	0.0000700988
80	0.00246971	0.000069932
82	0.00246375	0.0000697623
84	0.00245771	0.0000695904
86	0.00245157	0.0000694157
88	0.00244534	0.0000692384
90	0.00243902	0.0000690585
92	0.00243261	0.0000688762
94	0.00242611	0.0000686912
96	0.00241952	0.0000685038
98	0.00241284	0.0000683138
100	0.00240609	0.0000681218
102	0.00239924	0.0000679269
104	0.00239231	0.0000677299
106	0.00238529	0.0000675302
108	0.00237819	0.0000673284
110	0.00237101	0.0000671242
112	0.00236374	0.0000669175
114	0.0023564	0.0000667089
116	0.00234897	0.0000664977
118	0.00234146	0.0000662842
120	0.00233388	0.0000660688
122	0.00232621	0.0000658508
124	0.00231847	0.0000656308
126	0.00231065	0.0000654086
128	0.00230276	0.0000651844
130	0.00229479	0.000064958
132	0.00228674	0.0000647293
134	0.00227862	0.0000644986
136	0.00227043	0.0000642659
138	0.00226216	0.000064031
140	0.00225383	0.0000637944
142	0.00224542	0.0000635555
144	0.00223693	0.0000633144
146	0.00222838	0.0000630716
148	0.00221976	0.0000628268
150	0.00221108	0.0000625803
152	0.00220232	0.0000623316
154	0.0021935	0.0000620812
156	0.00218461	0.0000618288
158	0.00217565	0.0000615744
160	0.00216663	0.0000613183
162	0.00215754	0.0000610603
164	0.00214839	0.0000608006
166	0.00213918	0.0000605392
168	0.0021299	0.0000602758
170	0.00212057	0.000060011
172	0.00211117	0.0000597442
174	0.00210171	0.0000594758
176	0.00209219	0.0000592056
178	0.00208262	0.0000589341
180	0.00207299	0.0000586608
182	0.00206329	0.0000583856
184	0.00205354	0.000058109
186	0.00204373	0.0000578308
188	0.00203387	0.0000575511
190	0.00202396	0.00005727
192	0.00201399	0.000056987
194	0.00200396	0.0000567028
196	0.0019939	0.0000564172
198	0.00198377	0.0000561301
200	0.00197359	0.0000558415
202	0.00196336	0.0000555513
204	0.00195309	0.0000552601
206	0.00194276	0.0000549672
208	0.00193239	0.000054673
210	0.00192197	0.0000543776
212	0.0019115	0.0000540808
214	0.00190098	0.0000537828
216	0.00189043	0.0000534835
218	0.00187982	0.0000531829
220	0.00186918	0.0000528811
222	0.00185849	0.0000525782
224	0.00184775	0.000052274
226	0.00183698	0.0000519687
228	0.00182617	0.0000516622
230	0.00181531	0.0000513547
232	0.00180442	0.000051046
234	0.00179349	0.0000507363
236	0.00178252	0.0000504255
238	0.00177151	0.0000501137
240	0.00176047	0.0000498009
242	0.00174939	0.0000494871
244	0.00173828	0.0000491724
246	0.00172714	0.0000488567
248	0.00171596	0.0000485401
250	0.00170475	0.0000482226
252	0.00169351	0.0000479042
254	0.00168224	0.000047585
256	0.00167093	0.0000472649
258	0.0016596	0.0000469441
260	0.00164824	0.0000466224
262	0.00163685	0.0000463
264	0.00162544	0.0000459769
266	0.001614	0.000045653
268	0.00160253	0.0000453285
270	0.00159105	0.0000450032
272	0.00157953	0.0000446774
274	0.001568	0.0000443509
276	0.00155644	0.0000440238
278	0.00154486	0.0000436961
280	0.00153326	0.0000433679
282	0.00152164	0.0000430391
284	0.00151001	0.0000427099
286	0.00149835	0.0000423802
288	0.00148668	0.00004205
290	0.00147499	0.0000417193
292	0.00146329	0.0000413883
294	0.00145157	0.0000410568
296	0.00143984	0.000040725
298	0.0014281	0.0000403928
300	0.00141634	0.0000400604
302	0.00140457	0.0000397276
304	0.0013928	0.0000393946
306	0.00138101	0.0000390613
308	0.00136921	0.0000387278
310	0.00135741	0.0000383941
312	0.0013456	0.0000380602
314	0.00133378	0.0000377262
316	0.00132196	0.000037392
318	0.00131013	0.0000370577
320	0.0012983	0.0000367234
322	0.00128647	0.000036389
324	0.00127464	0.0000360546
326	0.0012628	0.0000357201
328	0.00125097	0.0000353857
330	0.00123913	0.0000350514
332	0.0012273	0.0000347171
334	0.00121546	0.0000343829
336	0.00120364	0.0000340488
338	0.00119182	0.0000337149
340	0.00118	0.0000333811
342	0.00116818	0.0000330476
344	0.00115638	0.0000327142
346	0.00114458	0.0000323811
348	0.00113279	0.0000320483
350	0.00112101	0.0000317158
352	0.00110924	0.0000313835
354	0.00109749	0.0000310517
356	0.00108574	0.0000307202
358	0.00107401	0.0000303891
360	0.00106229	0.0000300584
362	0.00105059	0.0000297282
364	0.0010389	0.0000293985
366	0.00102723	0.0000290692
368	0.00101557	0.0000287405
370	0.00100394	0.0000284123
372	0.000992325	0.0000280847
374	0.00098073	0.0000277577
376	0.000969156	0.0000274314
378	0.000957605	0.0000271057
380	0.000946076	0.0000267807
382	0.000934571	0.0000264563
384	0.000923092	0.0000261328
386	0.000911638	0.00002581
388	0.000900211	0.000025488
390	0.000888812	0.0000251668
392	0.000877441	0.0000248464
394	0.0008661	0.0000245269
396	0.000854789	0.0000242083
398	0.00084351	0.0000238906
400	0.000832263	0.0000235738
402	0.000821049	0.000023258
404	0.000809869	0.0000229433
406	0.000798725	0.0000226295
408	0.000787617	0.0000223168
410	0.000776546	0.0000220052
412	0.000765513	0.0000216947
414	0.000754519	0.0000213854
416	0.000743564	0.0000210771
418	0.000732651	0.0000207701
420	0.00072178	0.0000204644
422	0.000710951	0.0000201598
424	0.000700165	0.0000198565
426	0.000689425	0.0000195545
428	0.000678731	0.0000192539
430	0.000668082	0.0000189545
432	0.000657482	0.0000186566
434	0.00064693	0.0000183601
436	0.000636428	0.000018065
438	0.000625975	0.0000177714
440	0.000615574	0.0000174792
442	0.000605226	0.0000171886
444	0.000594932	0.0000168996
446	0.000584691	0.0000166121
448	0.000574506	0.0000163262
450	0.000564377	0.0000160419
452	0.000554306	0.0000157593
454	0.000544292	0.0000154784
456	0.000534338	0.0000151991
458	0.000524445	0.0000149217
460	0.000514612	0.000014646
462	0.000504841	0.000014372
464	0.000495135	0.0000141
466	0.000485492	0.0000138297
468	0.000475915	0.0000135614
470	0.000466403	0.0000132949
472	0.000456959	0.0000130304
474	0.000447583	0.0000127679
476	0.000438276	0.0000125074
478	0.000429039	0.0000122488
480	0.000419874	0.0000119924
482	0.000410781	0.000011738
484	0.00040176	0.0000114856
486	0.000392815	0.0000112355
488	0.000383944	0.0000109875
490	0.00037515	0.0000107417
492	0.000366433	0.0000104981
494	0.000357794	0.0000102568
496	0.000349235	0.0000100178
498	0.000340755	0.00000978099
500	0.000332358	0.0000095466
502	0.000324042	0.00000931453
504	0.00031581	0.00000908487
506	0.000307662	0.00000885763
508	0.0002996	0.00000863284
510	0.000291623	0.00000841049
512	0.000283735	0.00000819068
514	0.000275935	0.00000797339
516	0.000268225	0.00000775868
518	0.000260604	0.00000754651
520	0.000253075	0.00000733697
522	0.000245639	0.00000713008
524	0.000238298	0.00000692588
526	0.000231049	0.00000672434
528	0.000223897	0.00000652555
530	0.000216842	0.00000632951
532	0.000209886	0.00000613628
534	0.000203026	0.00000594579
536	0.000196268	0.0000057582
538	0.000189609	0.00000557341
540	0.000183054	0.00000539154
542	0.000176601	0.0000052126
544	0.000170253	0.00000503659
546	0.000164009	0.00000486352
548	0.000157871	0.00000469345
550	0.000151841	0.00000452641
552	0.000145918	0.00000436237
554	0.000140105	0.00000420141
556	0.000134402	0.00000404354
558	0.000128811	0.00000388877
560	0.000123332	0.00000373712
562	0.000117967	0.00000358862
564	0.000112716	0.00000344328
566	0.000107581	0.00000330113
568	0.000102562	0.00000316218
570	0.0000976615	0.00000302644
572	0.0000928795	0.00000289393
574	0.0000882174	0.00000276467
576	0.0000836761	0.00000263866
578	0.0000792568	0.00000251591
580	0.0000749605	0.00000239642
582	0.0000707884	0.0000022802
584	0.0000667413	0.00000216725
586	0.0000628205	0.00000205757
588	0.000059027	0.00000195114
590	0.0000553618	0.00000184797
592	0.000051826	0.00000174802
594	0.0000484208	0.0000016513
596	0.000045147	0.00000155775
598	0.0000420058	0.00000146737
600	0.0000389983	0.00000138011
602	0.0000361256	0.00000129593
604	0.0000333885	0.00000121478
606	0.0000307884	0.0000011366
608	0.0000283262	0.00000106135
610	0.0000260029	0.000000988942
612	0.0000238195	0.000000919314
614	0.0000217773	0.000000852401
616	0.0000198771	0.000000788123
618	0.00001812	0.000000726426
620	0.000016507	0.000000667257
622	0.0000150389	0.000000610582
624	0.0000136809	0.000000556392
626	0.0000123844	0.000000504651
628	0.0000111496	0.000000455379
630	0.0000099769	0.000000408589
632	0.00000886681	0.000000364304
634	0.00000781979	0.000000322539
636	0.00000683632	0.000000283314
638	0.00000591687	0.000000246646
640	0.00000506191	0.000000212552
642	0.00000427191	0.000000181048
644	0.00000354733	0.00000015215
646	0.00000288865	0.00000012587
648	0.00000229632	0.000000102219
650	0.00000177081	0.0000000811994
652	0.00000131257	0.0000000628061
654	0.000000922069	0.0000000470153
656	0.000000599748	0.0000000337682
658	0.000000346047	0.0000000229408
660	0.000000161395	0.0000000142871
662	0.0000000461935	0.00000000735631
664	0.000000000782821	0.00000000142781
664.3	0	0